TIME (SEC)	Mtr  1 Act Pos (Left Axis)	Mtr  1 Cmd Pos (Left Axis)	Mtr  5 Act Pos (Left Axis)	Mtr  5 Cmd Pos (Left Axis)	Mtr  1 Fol Err (Right Axis)	Mtr  5 Fol Err (Right Axis)	
 0 	 880347.296223958 	 900000 	 908164.061523438 	 900000 	 19652.7037760417 	-8164.0615234375 	
 4.42742228507996E-04 	 881518.296223958 	 900000 	 906106.061523438 	 900000 	 18481.7037760417 	-6106.0615234375 	
 8.85484457015991E-04 	 882994.296223958 	 900000 	 903409.061523438 	 900000 	 17005.7037760417 	-3409.0615234375 	
 1.32822668552399E-03 	 884893.296223958 	 900000 	 900430.061523438 	 900000 	 15106.7037760417 	-430.0615234375 	
 1.77096891403198E-03 	 887171.296223958 	 900000 	 897481.061523438 	 900000 	 12828.7037760417 	 2518.9384765625 	
 2.21371114253998E-03 	 889650.296223958 	 900000 	 894815.061523438 	 900000 	 10349.7037760417 	 5184.9384765625 	
 2.65645337104797E-03 	 892228.296223958 	 900000 	 892603.061523438 	 900000 	 7771.70377604174 	 7396.9384765625 	
 3.09919559955597E-03 	 894768.296223958 	 900000 	 891028.061523438 	 900000 	 5231.70377604174 	 8971.9384765625 	
 3.54193782806396E-03 	 897247.296223958 	 900000 	 890209.061523438 	 900000 	 2752.70377604174 	 9790.9384765625 	
 3.98468005657196E-03 	 899791.296223958 	 900000 	 890186.061523438 	 900000 	 208.703776041744 	 9813.9384765625 	
 4.42742228507996E-03 	 902405.296223958 	 900000 	 890862.061523438 	 900000 	-2405.29622395826 	 9137.9384765625 	
 4.87016451358795E-03 	 904938.296223958 	 900000 	 892021.061523438 	 900000 	-4938.29622395826 	 7978.9384765625 	
 5.31290674209595E-03 	 907169.296223958 	 900000 	 893377.061523438 	 900000 	-7169.29622395826 	 6622.9384765625 	
 5.75564897060394E-03 	 908903.296223958 	 900000 	 894723.061523438 	 900000 	-8903.29622395826 	 5276.9384765625 	
 6.19839119911194E-03 	 910198.296223958 	 900000 	 895950.061523438 	 900000 	-10198.2962239583 	 4049.9384765625 	
 6.64113342761993E-03 	 911172.296223958 	 900000 	 897086.061523438 	 900000 	-11172.2962239583 	 2913.9384765625 	
 7.08387565612793E-03 	 911831.296223958 	 900000 	 898212.061523438 	 900000 	-11831.2962239583 	 1787.9384765625 	
 7.52661788463593E-03 	 912058.296223958 	 900000 	 899295.061523438 	 900000 	-12058.2962239583 	 704.9384765625 	
 7.96936011314392E-03 	 911840.296223958 	 900000 	 900350.061523438 	 900000 	-11840.2962239583 	-350.0615234375 	
 8.41210234165192E-03 	 911353.296223958 	 900000 	 901563.061523438 	 900000 	-11353.2962239583 	-1563.0615234375 	
 8.85484457015991E-03 	 910818.296223958 	 900000 	 903097.061523438 	 900000 	-10818.2962239583 	-3097.0615234375 	
 9.29758679866791E-03 	 910274.296223958 	 900000 	 905028.061523438 	 900000 	-10274.2962239583 	-5028.0615234375 	
 9.7403290271759E-03 	 909645.296223958 	 900000 	 907271.061523438 	 900000 	-9645.29622395826 	-7271.0615234375 	
 1.01830712556839E-02 	 908985.296223958 	 900000 	 909554.061523438 	 900000 	-8985.29622395826 	-9554.0615234375 	
 1.06258134841919E-02 	 908353.296223958 	 900000 	 911623.061523438 	 900000 	-8353.29622395826 	-11623.0615234375 	
 1.10685557126999E-02 	 907750.296223958 	 900000 	 913296.061523438 	 900000 	-7750.29622395826 	-13296.0615234375 	
 1.15112979412079E-02 	 907222.296223958 	 900000 	 914398.061523438 	 900000 	-7222.29622395826 	-14398.0615234375 	
 1.19540401697159E-02 	 906881.296223958 	 900000 	 914672.061523438 	 900000 	-6881.29622395826 	-14672.0615234375 	
 1.23967823982239E-02 	 906741.296223958 	 900000 	 913979.061523438 	 900000 	-6741.29622395826 	-13979.0615234375 	
 1.28395246267319E-02 	 906697.296223958 	 900000 	 912277.061523438 	 900000 	-6697.29622395826 	-12277.0615234375 	
 1.32822668552399E-02 	 906584.296223958 	 900000 	 909622.061523438 	 900000 	-6584.29622395826 	-9622.0615234375 	
 1.37250090837479E-02 	 906365.296223958 	 900000 	 906256.061523438 	 900000 	-6365.29622395826 	-6256.0615234375 	
 1.41677513122559E-02 	 906087.296223958 	 900000 	 902509.061523438 	 900000 	-6087.29622395826 	-2509.0615234375 	
 1.46104935407639E-02 	 905752.296223958 	 900000 	 898827.061523438 	 900000 	-5752.29622395826 	 1172.9384765625 	
 1.50532357692719E-02 	 905275.296223958 	 900000 	 895457.061523438 	 900000 	-5275.29622395826 	 4542.9384765625 	
 1.54959779977798E-02 	 904575.296223958 	 900000 	 892438.061523438 	 900000 	-4575.29622395826 	 7561.9384765625 	
 1.59387202262878E-02 	 903663.296223958 	 900000 	 889942.061523438 	 900000 	-3663.29622395826 	 10057.9384765625 	
 1.63814624547958E-02 	 902609.296223958 	 900000 	 888129.061523438 	 900000 	-2609.29622395826 	 11870.9384765625 	
 1.68242046833038E-02 	 901461.296223958 	 900000 	 886962.061523438 	 900000 	-1461.29622395826 	 13037.9384765625 	
 1.72669469118118E-02 	 900257.296223958 	 900000 	 886281.061523438 	 900000 	-257.296223958256 	 13718.9384765625 	
 1.77096891403198E-02 	 898970.296223958 	 900000 	 885868.061523438 	 900000 	 1029.70377604174 	 14131.9384765625 	
 1.81524313688278E-02 	 897497.296223958 	 900000 	 885683.061523438 	 900000 	 2502.70377604174 	 14316.9384765625 	
 1.85951735973358E-02 	 895848.296223958 	 900000 	 885744.061523438 	 900000 	 4151.70377604174 	 14255.9384765625 	
 1.90379158258438E-02 	 894126.296223958 	 900000 	 886027.061523438 	 900000 	 5873.70377604174 	 13972.9384765625 	
 1.94806580543518E-02 	 892446.296223958 	 900000 	 886532.061523438 	 900000 	 7553.70377604174 	 13467.9384765625 	
 1.99234002828598E-02 	 890802.296223958 	 900000 	 887416.061523438 	 900000 	 9197.70377604174 	 12583.9384765625 	
 2.03661425113678E-02 	 889122.296223958 	 900000 	 888781.061523438 	 900000 	 10877.7037760417 	 11218.9384765625 	
 2.08088847398758E-02 	 887454.296223958 	 900000 	 890570.061523438 	 900000 	 12545.7037760417 	 9429.9384765625 	
 2.12516269683838E-02 	 885910.296223958 	 900000 	 892815.061523438 	 900000 	 14089.7037760417 	 7184.9384765625 	
 2.16943691968918E-02 	 884639.296223958 	 900000 	 895566.061523438 	 900000 	 15360.7037760417 	 4433.9384765625 	
 2.21371114253998E-02 	 883701.296223958 	 900000 	 898795.061523438 	 900000 	 16298.7037760417 	 1204.9384765625 	
 2.25798536539078E-02 	 883025.296223958 	 900000 	 902290.061523438 	 900000 	 16974.7037760417 	-2290.0615234375 	
 2.30225958824158E-02 	 882594.296223958 	 900000 	 905645.061523438 	 900000 	 17405.7037760417 	-5645.0615234375 	
 2.34653381109238E-02 	 882484.296223958 	 900000 	 908543.061523438 	 900000 	 17515.7037760417 	-8543.0615234375 	
 2.39080803394318E-02 	 882793.296223958 	 900000 	 910950.061523438 	 900000 	 17206.7037760417 	-10950.0615234375 	
 2.43508225679398E-02 	 883527.296223958 	 900000 	 912709.061523438 	 900000 	 16472.7037760417 	-12709.0615234375 	
 2.47935647964478E-02 	 884573.296223958 	 900000 	 913581.061523438 	 900000 	 15426.7037760417 	-13581.0615234375 	
 2.52363070249557E-02 	 885896.296223958 	 900000 	 913465.061523438 	 900000 	 14103.7037760417 	-13465.0615234375 	
 2.56790492534637E-02 	 887509.296223958 	 900000 	 912430.061523438 	 900000 	 12490.7037760417 	-12430.0615234375 	
 2.61217914819717E-02 	 889469.296223958 	 900000 	 910647.061523438 	 900000 	 10530.7037760417 	-10647.0615234375 	
 2.65645337104797E-02 	 891845.296223958 	 900000 	 908313.061523438 	 900000 	 8154.70377604174 	-8313.0615234375 	
 2.70072759389877E-02 	 894540.296223958 	 900000 	 905614.061523438 	 900000 	 5459.70377604174 	-5614.0615234375 	
 2.74500181674957E-02 	 897473.296223958 	 900000 	 902824.061523438 	 900000 	 2526.70377604174 	-2824.0615234375 	
 2.78927603960037E-02 	 900637.296223958 	 900000 	 900187.061523438 	 900000 	-637.296223958256 	-187.0615234375 	
 2.83355026245117E-02 	 903887.296223958 	 900000 	 897787.061523438 	 900000 	-3887.29622395826 	 2212.9384765625 	
 2.87782448530197E-02 	 907002.296223958 	 900000 	 895812.061523438 	 900000 	-7002.29622395826 	 4187.9384765625 	
 2.92209870815277E-02 	 909833.296223958 	 900000 	 894457.061523438 	 900000 	-9833.29622395826 	 5542.9384765625 	
 2.96637293100357E-02 	 912451.296223958 	 900000 	 893798.061523438 	 900000 	-12451.2962239583 	 6201.9384765625 	
 3.01064715385437E-02 	 914793.296223958 	 900000 	 893724.061523438 	 900000 	-14793.2962239583 	 6275.9384765625 	
 3.05492137670517E-02 	 916637.296223958 	 900000 	 893949.061523438 	 900000 	-16637.2962239583 	 6050.9384765625 	
 3.09919559955597E-02 	 917818.296223958 	 900000 	 894269.061523438 	 900000 	-17818.2962239583 	 5730.9384765625 	
 3.14346982240677E-02 	 918386.296223958 	 900000 	 894682.061523438 	 900000 	-18386.2962239583 	 5317.9384765625 	
 3.18774404525757E-02 	 918534.296223958 	 900000 	 895231.061523438 	 900000 	-18534.2962239583 	 4768.9384765625 	
 3.23201826810837E-02 	 918346.296223958 	 900000 	 895933.061523438 	 900000 	-18346.2962239583 	 4066.9384765625 	
 3.27629249095917E-02 	 917745.296223958 	 900000 	 896755.061523438 	 900000 	-17745.2962239583 	 3244.9384765625 	
 3.32056671380997E-02 	 916663.296223958 	 900000 	 897734.061523438 	 900000 	-16663.2962239583 	 2265.9384765625 	
 3.36484093666077E-02 	 915110.296223958 	 900000 	 898980.061523438 	 900000 	-15110.2962239583 	 1019.9384765625 	
 3.40911515951157E-02 	 913280.296223958 	 900000 	 900563.061523438 	 900000 	-13280.2962239583 	-563.0615234375 	
 3.45338938236237E-02 	 911383.296223958 	 900000 	 902477.061523438 	 900000 	-11383.2962239583 	-2477.0615234375 	
 3.49766360521317E-02 	 909432.296223958 	 900000 	 904663.061523438 	 900000 	-9432.29622395826 	-4663.0615234375 	
 3.54193782806397E-02 	 907478.296223958 	 900000 	 907039.061523438 	 900000 	-7478.29622395826 	-7039.0615234375 	
 3.58621205091476E-02 	 905512.296223958 	 900000 	 909278.061523438 	 900000 	-5512.29622395826 	-9278.0615234375 	
 3.63048627376556E-02 	 903522.296223958 	 900000 	 911010.061523438 	 900000 	-3522.29622395826 	-11010.0615234375 	
 3.67476049661636E-02 	 901548.296223958 	 900000 	 912055.061523438 	 900000 	-1548.29622395826 	-12055.0615234375 	
 3.71903471946716E-02 	 899758.296223958 	 900000 	 912341.061523438 	 900000 	 241.703776041744 	-12341.0615234375 	
 3.76330894231796E-02 	 898238.296223958 	 900000 	 911812.061523438 	 900000 	 1761.70377604174 	-11812.0615234375 	
 3.80758316516876E-02 	 896916.296223958 	 900000 	 910351.061523438 	 900000 	 3083.70377604174 	-10351.0615234375 	
 3.85185738801956E-02 	 895728.296223958 	 900000 	 907922.061523438 	 900000 	 4271.70377604174 	-7922.0615234375 	
 3.89613161087036E-02 	 894714.296223958 	 900000 	 904805.061523438 	 900000 	 5285.70377604174 	-4805.0615234375 	
 3.94040583372116E-02 	 893961.296223958 	 900000 	 901385.061523438 	 900000 	 6038.70377604174 	-1385.0615234375 	
 3.98468005657196E-02 	 893515.296223958 	 900000 	 898066.061523438 	 900000 	 6484.70377604174 	 1933.9384765625 	
 4.02895427942276E-02 	 893302.296223958 	 900000 	 895062.061523438 	 900000 	 6697.70377604174 	 4937.9384765625 	
 4.07322850227356E-02 	 893221.296223958 	 900000 	 892554.061523438 	 900000 	 6778.70377604174 	 7445.9384765625 	
 4.11750272512436E-02 	 893154.296223958 	 900000 	 890598.061523438 	 900000 	 6845.70377604174 	 9401.9384765625 	
 4.16177694797516E-02 	 893044.296223958 	 900000 	 889164.061523438 	 900000 	 6955.70377604174 	 10835.9384765625 	
 4.20605117082596E-02 	 892846.296223958 	 900000 	 888163.061523438 	 900000 	 7153.70377604174 	 11836.9384765625 	
 4.25032539367676E-02 	 892599.296223958 	 900000 	 887549.061523438 	 900000 	 7400.70377604174 	 12450.9384765625 	
 4.29459961652756E-02 	 892421.296223958 	 900000 	 887254.061523438 	 900000 	 7578.70377604174 	 12745.9384765625 	
 4.33887383937836E-02 	 892309.296223958 	 900000 	 887124.061523438 	 900000 	 7690.70377604174 	 12875.9384765625 	
 4.38314806222916E-02 	 892038.296223958 	 900000 	 887022.061523438 	 900000 	 7961.70377604174 	 12977.9384765625 	
 4.42742228507996E-02 	 891475.296223958 	 900000 	 886949.061523438 	 900000 	 8524.70377604174 	 13050.9384765625 	
 4.47169650793076E-02 	 890757.296223958 	 900000 	 887064.061523438 	 900000 	 9242.70377604174 	 12935.9384765625 	
 4.51597073078156E-02 	 890052.296223958 	 900000 	 887620.061523438 	 900000 	 9947.70377604174 	 12379.9384765625 	
 4.56024495363235E-02 	 889439.296223958 	 900000 	 888749.061523438 	 900000 	 10560.7037760417 	 11250.9384765625 	
 4.60451917648315E-02 	 888895.296223958 	 900000 	 890464.061523438 	 900000 	 11104.7037760417 	 9535.9384765625 	
 4.64879339933395E-02 	 888405.296223958 	 900000 	 892859.061523438 	 900000 	 11594.7037760417 	 7140.9384765625 	
 4.69306762218475E-02 	 888096.296223958 	 900000 	 895905.061523438 	 900000 	 11903.7037760417 	 4094.9384765625 	
 4.73734184503555E-02 	 888130.296223958 	 900000 	 899457.061523438 	 900000 	 11869.7037760417 	 542.9384765625 	
 4.78161606788635E-02 	 888513.296223958 	 900000 	 903220.061523438 	 900000 	 11486.7037760417 	-3220.0615234375 	
 4.82589029073715E-02 	 889201.296223958 	 900000 	 907040.061523438 	 900000 	 10798.7037760417 	-7040.0615234375 	
 4.87016451358795E-02 	 890120.296223958 	 900000 	 910583.061523438 	 900000 	 9879.70377604174 	-10583.0615234375 	
 4.91443873643875E-02 	 891231.296223958 	 900000 	 913451.061523438 	 900000 	 8768.70377604174 	-13451.0615234375 	
 4.95871295928955E-02 	 892518.296223958 	 900000 	 915408.061523438 	 900000 	 7481.70377604174 	-15408.0615234375 	
 5.00298718214035E-02 	 893982.296223958 	 900000 	 916290.061523438 	 900000 	 6017.70377604174 	-16290.0615234375 	
 5.04726140499115E-02 	 895694.296223958 	 900000 	 916166.061523438 	 900000 	 4305.70377604174 	-16166.0615234375 	
 5.09153562784195E-02 	 897662.296223958 	 900000 	 915157.061523438 	 900000 	 2337.70377604174 	-15157.0615234375 	
 5.13580985069275E-02 	 899825.296223958 	 900000 	 913357.061523438 	 900000 	 174.703776041744 	-13357.0615234375 	
 5.18008407354355E-02 	 902103.296223958 	 900000 	 910919.061523438 	 900000 	-2103.29622395826 	-10919.0615234375 	
 5.22435829639435E-02 	 904531.296223958 	 900000 	 908071.061523438 	 900000 	-4531.29622395826 	-8071.0615234375 	
 5.26863251924515E-02 	 906996.296223958 	 900000 	 905177.061523438 	 900000 	-6996.29622395826 	-5177.0615234375 	
 5.31290674209595E-02 	 909392.296223958 	 900000 	 902520.061523438 	 900000 	-9392.29622395826 	-2520.0615234375 	
 5.35718096494675E-02 	 911743.296223958 	 900000 	 900203.061523438 	 900000 	-11743.2962239583 	-203.0615234375 	
 5.40145518779755E-02 	 914047.296223958 	 900000 	 898324.061523438 	 900000 	-14047.2962239583 	 1675.9384765625 	
 5.44572941064835E-02 	 916180.296223958 	 900000 	 896889.061523438 	 900000 	-16180.2962239583 	 3110.9384765625 	
 5.49000363349915E-02 	 917980.296223958 	 900000 	 895814.061523438 	 900000 	-17980.2962239583 	 4185.9384765625 	
 5.53427785634995E-02 	 919293.296223958 	 900000 	 894968.061523438 	 900000 	-19293.2962239583 	 5031.9384765625 	
 5.57855207920074E-02 	 920135.296223958 	 900000 	 894251.061523438 	 900000 	-20135.2962239583 	 5748.9384765625 	
 5.62282630205154E-02 	 920597.296223958 	 900000 	 893678.061523438 	 900000 	-20597.2962239583 	 6321.9384765625 	
 5.66710052490234E-02 	 920575.296223958 	 900000 	 893268.061523438 	 900000 	-20575.2962239583 	 6731.9384765625 	
 5.71137474775314E-02 	 919926.296223958 	 900000 	 893018.061523438 	 900000 	-19926.2962239583 	 6981.9384765625 	
 5.75564897060394E-02 	 918646.296223958 	 900000 	 892952.061523438 	 900000 	-18646.2962239583 	 7047.9384765625 	
 5.79992319345474E-02 	 916888.296223958 	 900000 	 893193.061523438 	 900000 	-16888.2962239583 	 6806.9384765625 	
 5.84419741630554E-02 	 914768.296223958 	 900000 	 893881.061523438 	 900000 	-14768.2962239583 	 6118.9384765625 	
 5.88847163915634E-02 	 912314.296223958 	 900000 	 895062.061523438 	 900000 	-12314.2962239583 	 4937.9384765625 	
 5.93274586200714E-02 	 909522.296223958 	 900000 	 896750.061523438 	 900000 	-9522.29622395826 	 3249.9384765625 	
 5.97702008485794E-02 	 906550.296223958 	 900000 	 898836.061523438 	 900000 	-6550.29622395826 	 1163.9384765625 	
 6.02129430770874E-02 	 903516.296223958 	 900000 	 901183.061523438 	 900000 	-3516.29622395826 	-1183.0615234375 	
 6.06556853055954E-02 	 900408.296223958 	 900000 	 903676.061523438 	 900000 	-408.296223958256 	-3676.0615234375 	
 6.10984275341034E-02 	 897347.296223958 	 900000 	 906032.061523438 	 900000 	 2652.70377604174 	-6032.0615234375 	
 6.15411697626114E-02 	 894516.296223958 	 900000 	 907926.061523438 	 900000 	 5483.70377604174 	-7926.0615234375 	
 6.19839119911194E-02 	 891928.296223958 	 900000 	 909232.061523438 	 900000 	 8071.70377604174 	-9232.0615234375 	
 6.24266542196274E-02 	 889612.296223958 	 900000 	 909799.061523438 	 900000 	 10387.7037760417 	-9799.0615234375 	
 6.28693964481354E-02 	 887653.296223958 	 900000 	 909483.061523438 	 900000 	 12346.7037760417 	-9483.0615234375 	
 6.33121386766434E-02 	 886083.296223958 	 900000 	 908318.061523438 	 900000 	 13916.7037760417 	-8318.0615234375 	
 6.37548809051514E-02 	 884946.296223958 	 900000 	 906518.061523438 	 900000 	 15053.7037760417 	-6518.0615234375 	
 6.41976231336594E-02 	 884200.296223958 	 900000 	 904374.061523438 	 900000 	 15799.7037760417 	-4374.0615234375 	
 6.46403653621674E-02 	 883822.296223958 	 900000 	 902096.061523438 	 900000 	 16177.7037760417 	-2096.0615234375 	
 6.50831075906754E-02 	 883868.296223958 	 900000 	 899781.061523438 	 900000 	 16131.7037760417 	 218.9384765625 	
 6.55258498191833E-02 	 884277.296223958 	 900000 	 897581.061523438 	 900000 	 15722.7037760417 	 2418.9384765625 	
 6.59685920476913E-02 	 884860.296223958 	 900000 	 895677.061523438 	 900000 	 15139.7037760417 	 4322.9384765625 	
 6.64113342761993E-02 	 885551.296223958 	 900000 	 894057.061523438 	 900000 	 14448.7037760417 	 5942.9384765625 	
 6.68540765047073E-02 	 886448.296223958 	 900000 	 892607.061523438 	 900000 	 13551.7037760417 	 7392.9384765625 	
 6.72968187332153E-02 	 887592.296223958 	 900000 	 891257.061523438 	 900000 	 12407.7037760417 	 8742.9384765625 	
 6.77395609617233E-02 	 888864.296223958 	 900000 	 890083.061523438 	 900000 	 11135.7037760417 	 9916.9384765625 	
 6.81823031902313E-02 	 890075.296223958 	 900000 	 889162.061523438 	 900000 	 9924.70377604174 	 10837.9384765625 	
 6.86250454187393E-02 	 891280.296223958 	 900000 	 888420.061523438 	 900000 	 8719.70377604174 	 11579.9384765625 	
 6.90677876472473E-02 	 892646.296223958 	 900000 	 887850.061523438 	 900000 	 7353.70377604174 	 12149.9384765625 	
 6.95105298757553E-02 	 894068.296223958 	 900000 	 887643.061523438 	 900000 	 5931.70377604174 	 12356.9384765625 	
 6.99532721042633E-02 	 895314.296223958 	 900000 	 887968.061523438 	 900000 	 4685.70377604174 	 12031.9384765625 	
 7.03960143327713E-02 	 896323.296223958 	 899999.505859375 	 888818.061523438 	 899999.505859375 	 3676.20963541674 	 11181.4443359375 	
 7.08387565612793E-02 	 897250.296223958 	 899998.0234375 	 890186.061523438 	 899998.0234375 	 2747.72721354174 	 9811.9619140625 	
 7.12814987897873E-02 	 898169.296223958 	 899995.553059896 	 892170.061523438 	 899995.553059896 	 1826.2568359375 	 7825.49153645826 	
 7.17242410182953E-02 	 899012.296223958 	 899992.094726563 	 894779.061523438 	 899992.094726563 	 979.798502604244 	 5213.033203125 	
 7.21669832468033E-02 	 899723.296223958 	 899987.648111979 	 897848.061523438 	 899987.648111979 	 264.351888020872 	 2139.58658854163 	
 7.26097254753113E-02 	 900354.296223958 	 899982.213216146 	 901016.061523438 	 899982.213216146 	-372.0830078125 	-1033.84830729174 	
 7.30524677038193E-02 	 900980.296223958 	 899975.790364583 	 904071.061523438 	 899975.790364583 	-1004.505859375 	-4095.27115885424 	
